# DIAMOND LIGHT SOURCE
# Instrument: I20-XAS Date: Sat, 3 Oct 2015 14:59:25 BST
# Ring energy: 3.00090 GeV
# Initial ring current: 264.43117 mA
# Filling mode: Standby
# Wiggler gap selected: 20.00100 mm
#  
# Primary slits:  vertical gap= 0.11000 mrad; horizontal gap= 0.67011 mrad; vertical offset= 0.02499 mrad; horizontal offset= -0.06504 mrad
# Secondary slits:  vertical gap= 6.39600 mm; horizontal gap= 24.69500 mm; vertical offset= -0.00100 mm; horizontal offset= -0.00050 mm
# Experimental slits:  vertical gap= 1.39981 mm; horizontal gap= 11.99991 mm; vertical offset= 1.32001 mm; horizontal offset= -0.00001 mm
#  
# Optic Hutch Mirrors Coating: Rhodium
# Monochromator crystal cut: Si(111)
# Incident angle for Harmonic Rejection Mirrors: -6.89 mrad
# Harmonic rejection mirrors coating: Rh current
# I0 Stanford sensitivity: 1 uA/V Offsets: 5 nA
# It Stanford sensitivity: 2 uA/V Offsets: 10 nA
# Iref Stanford sensitivity: 100 nA/V Offsets: 500 pA
# Atn5 (Xia) filters: Al 0.2 mm In Al 0.5 mm Out Al 1.0 mm Out Al 3.0 mm Out C 0.5 mm Out C 1.0 mm In C 2.0 mm In C 4.0 mm In
# Sample stage: x: 1.00 mm y: 40.00 mm z: 0.00 mm rot: -0.00 deg roll: 1.56 deg pitch: -10.94 deg
# Ascii output file name: 'BrKedge//ascii/KBr_pellet_trans_56597_1.dat'
# Nexus output file: '/dls/i20/data/2015/cm12176-4/BrKedge//nexus/56597_1.nxs'
# XML folder and files:
# /dls/i20/data/2015/cm12176-4/xml/BrKedge/
# Br_trans
# KBr_pellet_trans
# Detector_Parameters
# Output_Parameters
# The contents of these files are also stored in the nexus file.
# Sample name: KBr_pellet_trans
# Sample description: KBr_pellet_trans
# Dark current intensity was collected over 1.00s. Average counts per second: I0 569.00   It 296.00   Iref 511.00
# Dark current has been automatically removed from counts in main scan (I0,It,Iref)
#
# Energy	lnI0It	
13274.0024	-0.04344
13279.0039	-0.04446
13283.9986	-0.04593
13288.9992	-0.04733
13293.999	-0.04877
13298.9973	-0.05019
13304.0025	-0.05174
13309.0003	-0.05321
13313.9994	-0.05471
13318.9984	-0.05619
13324.0003	-0.05764
13329.0047	-0.05894
13333.9987	-0.06003
13338.9969	-0.06119
13344.0015	-0.06263
13349.0017	-0.064
13353.9996	-0.06531
13358.9996	-0.06642
13364.0038	-0.06742
13369.0005	-0.06842
13374.0006	-0.06945
13379.0036	-0.07073
13384.0043	-0.07182
13388.9992	-0.07309
13393.9979	-0.07419
13398.882	-0.07519
13403.5331	-0.07612
13407.946	-0.0767
13412.1228	-0.07717
13416.0809	-0.07777
13419.8052	-0.07828
13423.2948	-0.07867
13426.5615	-0.07885
13429.5997	-0.07905
13432.4145	-0.07895
13435.0033	-0.0788
13437.3703	-0.07848
13439.513	-0.07821
13441.4373	-0.07769
13443.1426	-0.07734
13444.6235	-0.07671
13445.8934	-0.07622
13446.9417	-0.07569
13447.7705	-0.07534
13448.3906	-0.07499
13448.802	-0.07479
13449.1002	-0.07465
13449.4007	-0.0744
13449.6972	-0.07419
13449.9994	-0.07401
13450.2986	-0.07385
13450.5996	-0.07363
13450.9027	-0.07339
13451.1954	-0.07323
13451.5012	-0.07302
13451.8	-0.07276
13452.0984	-0.07251
13452.4025	-0.07223
13452.7004	-0.07196
13452.9984	-0.07166
13453.2973	-0.07141
13453.6001	-0.07105
13453.8977	-0.07081
13454.2006	-0.07044
13454.4991	-0.07012
13454.7989	-0.06975
13455.1005	-0.06943
13455.3994	-0.06901
13455.7011	-0.06864
13456.0027	-0.06823
13456.3035	-0.06782
13456.6007	-0.06733
13456.9081	-0.06688
13457.1988	-0.06643
13457.5001	-0.06599
13457.8035	-0.06554
13458.1057	-0.06497
13458.4	-0.06439
13458.7	-0.0638
13458.9982	-0.0632
13459.3	-0.0626
13459.5992	-0.06198
13459.901	-0.06128
13460.198	-0.06059
13460.5024	-0.05987
13460.799	-0.05916
13461.1035	-0.05843
13461.3966	-0.05759
13461.702	-0.05677
13461.9964	-0.05588
13462.2984	-0.0549
13462.6038	-0.0539
13462.9	-0.05286
13463.1998	-0.05175
13463.4974	-0.05062
13463.8007	-0.04941
13464.0992	-0.04818
13464.402	-0.04678
13464.7001	-0.04539
13464.9991	-0.04394
13465.302	-0.04244
13465.5997	-0.04074
13465.8991	-0.039
13466.1977	-0.03723
13466.5024	-0.0353
13466.8015	-0.03322
13467.1019	-0.03101
13467.397	-0.02869
13467.6996	-0.02613
13467.9991	-0.02352
13468.3004	-0.02062
13468.6013	-0.01761
13468.9004	-0.01431
13469.2031	-0.01078
13469.4974	-0.00693
13469.8001	-0.00273
13470.0976	0.00178
13470.4034	0.0067
13470.6982	0.01211
13471.0005	0.01801
13471.3041	0.02463
13471.6007	0.03184
13471.9013	0.03988
13472.2002	0.04874
13472.5004	0.05871
13472.801	0.06996
13473.0999	0.08264
13473.4023	0.09719
13473.7008	0.11381
13473.9997	0.13306
13474.296	0.15557
13474.5958	0.182
13474.9014	0.21332
13475.1973	0.25099
13475.5007	0.29645
13475.8032	0.35191
13476.1009	0.41927
13476.3977	0.50102
13476.6977	0.59951
13477.0042	0.71683
13477.3002	0.85285
13477.6015	1.00513
13477.8988	1.1677
13478.1988	1.33053
13478.5002	1.48057
13478.8028	1.60332
13479.0998	1.68744
13479.399	1.72898
13479.6986	1.73219
13479.9986	1.70752
13480.3009	1.66781
13480.6002	1.62454
13480.8976	1.5855
13481.2004	1.5563
13481.4983	1.5388
13481.7941	1.5324
13482.1018	1.53441
13482.4002	1.54121
13482.6977	1.54844
13482.9993	1.55297
13483.2991	1.55277
13483.5989	1.54627
13483.8978	1.53164
13484.2011	1.50608
13484.5027	1.467
13484.8026	1.4131
13485.1047	1.34657
13485.4019	1.27278
13485.7009	1.19938
13485.9995	1.1335
13486.3007	1.08097
13486.6037	1.04509
13486.9015	1.02737
13487.2001	1.02719
13487.4992	1.04225
13487.7979	1.06898
13488.101	1.10268
13488.3974	1.13849
13488.7023	1.1724
13489.0046	1.20161
13489.2993	1.22594
13489.6016	1.24578
13489.9021	1.26312
13490.2013	1.27926
13490.4948	1.29491
13490.7998	1.30969
13491.096	1.32281
13491.4023	1.33373
13491.6985	1.34152
13492	1.34596
13492.2979	1.34741
13492.6012	1.34665
13492.8997	1.34466
13493.1995	1.34188
13493.5006	1.33923
13493.8026	1.33724
13494.0994	1.33664
13494.3992	1.33773
13494.6986	1.34082
13495.0029	1.34586
13495.3001	1.35269
13495.6	1.36095
13495.8999	1.36979
13496.2034	1.37847
13496.5002	1.38586
13496.7997	1.3909
13497.101	1.39269
13497.3997	1.39069
13497.6983	1.38509
13497.9988	1.37619
13498.2984	1.3642
13498.6024	1.3504
13498.8998	1.33549
13499.2003	1.32005
13499.2034	1.32011
13499.5158	1.30428
13499.8707	1.2879
13500.2587	1.27201
13500.6862	1.25844
13501.1552	1.24866
13501.6688	1.24485
13502.229	1.24721
13502.8453	1.25396
13503.5113	1.26187
13504.2347	1.26858
13505.018	1.27497
13505.858	1.28191
13506.7463	1.28912
13507.6476	1.29452
13508.5605	1.29781
13509.4872	1.29956
13510.4221	1.29932
13511.3748	1.29744
13512.3285	1.29536
13513.3031	1.29446
13514.2863	1.29372
13515.2883	1.29384
13516.2961	1.29642
13517.3135	1.30061
13518.3478	1.30399
13519.3987	1.30476
13520.4506	1.30171
13521.5289	1.29528
13522.6095	1.28783
13523.7001	1.28142
13524.8095	1.27705
13525.9297	1.27451
13527.0572	1.2727
13528.2023	1.26875
13529.3612	1.26081
13530.5262	1.24982
13531.7073	1.23785
13532.9015	1.22721
13534.1044	1.21958
13535.3226	1.21586
13536.5504	1.21531
13537.7894	1.21656
13539.0408	1.21831
13540.3101	1.22052
13541.5855	1.22521
13542.8775	1.23177
13544.1765	1.23884
13545.4958	1.24488
13546.8171	1.24962
13548.1574	1.25395
13549.505	1.25755
13550.8725	1.25933
13552.2479	1.25724
13553.6338	1.25291
13555.0347	1.24727
13556.4448	1.24188
13557.8686	1.23713
13559.3078	1.23307
13560.7554	1.22847
13562.2091	1.22663
13563.6885	1.22287
13565.1714	1.22003
13566.6675	1.2175
13568.1796	1.21455
13569.6992	1.21168
13571.233	1.20946
13572.7797	1.20751
13574.3379	1.20528
13575.9085	1.20291
13577.4907	1.20284
13579.0835	1.20172
13580.6897	1.20344
13582.3154	1.20656
13583.9412	1.21037
13585.5834	1.2141
13587.2404	1.21677
13588.9072	1.21889
13590.5901	1.21949
13592.2842	1.21967
13593.9867	1.21981
13595.7009	1.22011
13597.4299	1.2205
13599.1737	1.22064
13600.9251	1.22061
13602.6918	1.21904
13604.4692	1.21657
13606.2557	1.21365
13608.0566	1.21056
13609.8732	1.20741
13611.7011	1.20437
13613.5412	1.20151
13615.3867	1.19875
13617.253	1.19626
13619.127	1.19411
13621.0168	1.19255
13622.9117	1.19161
13624.8242	1.1909
13626.7485	1.19045
13628.6882	1.19027
13630.6311	1.18989
13632.5909	1.1892
13634.567	1.18893
13636.5505	1.18891
13638.5481	1.18869
13640.5607	1.18833
13642.5775	1.18791
13644.6103	1.18756
13646.6586	1.18725
13648.717	1.18669
13650.7837	1.18587
13652.8714	1.18475
13654.9598	1.18353
13657.0614	1.18113
13659.1887	1.18024
13661.322	1.17859
13663.46	1.17686
13665.6146	1.17523
13667.7889	1.17371
13669.9662	1.17218
13672.1569	1.17061
13674.3614	1.16887
13676.5758	1.16733
13678.809	1.1659
13681.0502	1.1644
13683.2999	1.16304
13685.5703	1.16188
13687.8451	1.16079
13690.1329	1.16025
13692.4302	1.15972
13694.7487	1.15919
13697.0735	1.15854
13699.4146	1.15825
13701.7628	1.15798
13704.1269	1.15758
13706.5032	1.15721
13708.889	1.15658
13711.2866	1.15577
13713.7037	1.15482
13716.1222	1.1536
13718.5566	1.15244
13721.0078	1.15121
13723.4663	1.15001
13725.939	1.14858
13728.4245	1.14719
13730.9227	1.14572
13733.4274	1.14418
13735.954	1.14258
13738.4857	1.14123
13741.0294	1.13967
13743.5882	1.13829
13746.1599	1.13683
13748.7413	1.13525
13751.3328	1.13373
13753.9386	1.13237
13756.5624	1.13114
13759.1895	1.12988
13761.831	1.12873
13764.4909	1.12762
13767.1574	1.12632
13769.8393	1.12516
13772.5318	1.124
13775.2305	1.12291
13777.9541	1.1219
13780.6817	1.12062
13783.419	1.11943
13786.17	1.11802
13788.9358	1.11669
13791.7135	1.1153
13794.5024	1.11382
13797.3058	1.11249
13800.1178	1.11096
13802.9439	1.10955
13805.7831	1.10815
13808.6342	1.1067
13811.4939	1.10519
13814.3696	1.1037
13817.2572	1.10224
13820.1553	1.10082
13823.0671	1.09935
13825.9913	1.09782
13828.9264	1.09634
13831.8782	1.09477
13834.8349	1.09326
13837.8073	1.09187
13840.7927	1.09059
13843.7895	1.08919
13846.7984	1.08779
13849.8202	1.08637
13852.8546	1.08488
13855.9014	1.08342
13858.9538	1.08185
13862.0225	1.08043
13865.1117	1.07898
13868.2033	1.07735
13871.3069	1.07591
13874.4278	1.07439
13877.5595	1.07302
13880.7006	1.07159
13883.8576	1.07046
13887.0254	1.06901
13890.2008	1.06733
13893.3973	1.0657
13896.6005	1.06395
13899.8117	1.06237
13903.0441	1.0608
13906.2846	1.05918
13909.5379	1.05753
13912.8049	1.05578
13916.0777	1.054
13919.3709	1.05235
13922.669	1.05078
13925.9837	1.04923
13929.3108	1.04768
13932.6518	1.04606
13936.0033	1.04446
13939.3621	1.04288
13942.7353	1.04121
13946.1272	1.03943
13949.524	1.03795
13952.9315	1.03629
13956.3515	1.0347
13959.7917	1.03304
13963.2383	1.0315
13966.698	1.02993
13970.1745	1.02818
13973.6533	1.02655
13977.1552	1.02485
13980.6636	1.02316
13984.1828	1.02155
13987.7204	1.01981
13991.2613	1.01815
13994.8144	1.01661
13998.3898	1.01488
14001.9732	1.01313
14005.567	1.01153
14009.1708	1.01014
14012.7861	1.00743
14016.4174	1.0057
14020.0679	1.00551
14023.7179	1.00331
14027.3861	1.00133
14031.0672	0.99976
14034.7612	0.99796
14038.4591	0.9961
14042.1796	0.99445
14045.9073	0.99264
14049.6428	0.99111
14053.3985	0.98965
14057.1644	0.9881
14060.9381	0.98665
14064.7287	0.98532
14068.531	0.98413
14072.3445	0.98122
14076.1706	0.97921
14080.0032	0.97892
14083.8577	0.97712
14087.7195	0.97476
14091.5922	0.97169
14095.4786	0.96973
14099.3788	0.96894
14103.2927	0.96647
14107.2156	0.96454
14111.147	0.96255
14115.099	0.96101
14119.0571	0.95927
14123.0304	0.95768
14127.0124	0.95543
14131.0092	0.9534
14135.0166	0.95163
14139.0398	0.94988
14143.0716	0.94811
14147.1209	0.94669
14151.1734	0.9439
14155.2449	0.94256
14159.3279	0.94179
14163.4217	0.94013
14167.5304	0.93876
14171.6465	0.93522
14175.7767	0.93332
14179.9195	0.93213
14184.0731	0.93008
14188.2414	0.92824
14192.4215	0.92639
14196.605	0.9244
14200.8165	0.9227
14205.029	0.92088
14209.2558	0.91886
14213.4984	0.9169
14217.7514	0.91508
14222.0188	0.91339
14226.2936	0.9119
14230.5853	0.90959
14234.8826	0.90717
14239.1943	0.90631
14243.5259	0.90393
14247.8617	0.90209
14252.2109	0.90036
14256.5683	0.89867
14260.9471	0.89674
14265.3351	0.895
14269.7342	0.89319
14274.1395	0.89138
14278.5648	0.88962
14283.0068	0.88779
14287.4467	0.88578
14291.9111	0.88362
14296.3814	0.8817
14300.8698	0.87963
14305.3641	0.87787
14309.8702	0.87614
14314.3926	0.87443
14318.9244	0.87294
14323.47	0.8711
14328.0245	0.86952
14332.5964	0.86807
14337.1732	0.86626
14341.773	0.86428
14346.3782	0.86279
14350.9965	0.86061
14355.6272	0.85863
14360.2695	0.85692
14364.9243	0.85514
14369.5943	0.85303
14374.2662	0.85095
14378.9624	0.84865
14383.6656	0.84633
14388.379	0.84405
14393.1081	0.84181
14397.8529	0.8392
14402.5994	0.83731
14407.3661	0.83504
14412.1421	0.83298
14416.9355	0.8309
14421.7351	0.82882
14426.549	0.82667
14431.3763	0.82455
14436.2089	0.82305
14441.0609	0.82094
14445.9218	0.8189
14450.7977	0.81694
14455.6744	0.81499
14460.5849	0.81298
14465.4936	0.81103
14470.4144	0.8093
14475.3543	0.80743
14480.2966	0.8054
14485.2586	0.80351
14490.2261	0.80171
14495.2109	0.79973
14500.2118	0.79794
14505.2188	0.7958
14510.2364	0.79374
14515.2714	0.79168
14520.3165	0.78965
14525.3703	0.78776
14530.441	0.78581
14535.5199	0.78348
14540.6209	0.78139
14545.7265	0.77929
14550.8419	0.7771
14555.966	0.77512
14561.115	0.77308
14566.2645	0.77094
14571.4368	0.76923
14576.6138	0.76711
14581.8095	0.76514
14587.0115	0.76291
14592.2276	0.76085
14597.4522	0.75879
14602.6914	0.7566
14607.9453	0.75461
14613.2087	0.7526
14618.4853	0.7505
14623.774	0.74821
14629.0728	0.74675
14634.3922	0.7446
14639.716	0.74268
14645.0541	0.74056
14650.4035	0.73899
14655.7662	0.73692
14661.1396	0.7344
14666.5217	0.7324
14671.9267	0.73044
14677.3388	0.72838
14682.758	0.72616
14688.1923	0.72381
14693.6375	0.72168
14699.0978	0.71972
14704.5706	0.71713
14709.9971	0.71501
# Instrument: I20-XAS Date: Sat, 3 Oct 2015 15:22:45 BST	
# Final ring current: 266.74930	
