# DIAMOND LIGHT SOURCE
# Instrument: I20-XAS Date: Thu, 30 May 2013 21:39:16 BST
# Ring energy: 3.00095 GeV
# Initial ring current: 298.25784 mA
# Filling mode: Standby
# Wiggler gap selected: 20.00000 mm
#  
# Primary slits:  vertical gap= 0.12004 mm; horizontal gap= 0.80012 mm; vertical offset= 0.02503 mm; horizontal offset= 0.00002 mm
# Secondary slits:  vertical gap= 5.00000 mm; horizontal gap= 26.00100 mm; vertical offset= -0.15000 mm; horizontal offset= 0.68950 mm
# Experimental slits:  vertical gap= 1.20000 mm; horizontal gap= 10.00004 mm; vertical offset= 0.70000 mm; horizontal offset= 0.00001 mm
#  
# Optic Hutch Mirrors Coating: Rhodium
# Monochromator crystal cut: Si(111)
# Incident angle for Harmonic Rejection Mirrors: -6.42 mrad
# Harmonic rejection mirrors coating: Silicon
# I0 Stanford sensitivity: 2 uA/V Offsets: 10 nA
# It Stanford sensitivity: 2 uA/V Offsets: 10 nA
# Iref Stanford sensitivity: 200 nA/V Offsets: 1 nA
# Atn5 (Xia) filters: Empty Out 1mm vC Out 2mm vC In 4mm vC Out
# Sample stage: x: -2.65 mm y: 20.00 mm z: 0.00 mm rot: -0.00 deg roll: 0.00 deg pitch: 0.00 deg
#
# Ascii output file name: 'Cofoil_32553_1.dat'
# Nexus output file: '/dls/i20/data/2013/cm5945-2/Co_K_edge/nexus/32553_1.nxs'
# The XML files, ScanParameters, SampleParameters, DetectorParameters, OutputParameters
# are stored in the nexus file.
#
# Sample name: Cofoil
# Sample description: Cofoil
##
#
#
# Dark current intensity was collected over 3.00s. Average counts per second: I0 128.00   It 440.67   Iref 279.67
# Dark current has been automatically removed from counts in main scan (I0,It,Iref)
#
# Energy	lnI0It          	
7508.9990	-0.40390
7511.9990	-0.40580
7515.0000	-0.40730
7517.9990	-0.40880
7521.0000	-0.41050
7524.0010	-0.41220
7527.0010	-0.41380
7530.0000	-0.41510
7532.9980	-0.41710
7535.9970	-0.41920
7539.0010	-0.42140
7542.0000	-0.42310
7545.0020	-0.42460
7547.9990	-0.42650
7551.0000	-0.42790
7554.0000	-0.42950
7557.0030	-0.43160
7559.9990	-0.43270
7563.0000	-0.43440
7566.0000	-0.43630
7569.0000	-0.43800
7572.0010	-0.43970
7575.0000	-0.44140
7578.0000	-0.44310
7580.9980	-0.44470
7583.9980	-0.44520
7586.9990	-0.44750
7590.0000	-0.44920
7592.9990	-0.45130
7596.0000	-0.45330
7599.0010	-0.45470
7601.9990	-0.45670
7604.9980	-0.45820
7608.0030	-0.45980
7610.9970	-0.46100
7614.0000	-0.46290
7616.9990	-0.46480
7620.0020	-0.46650
7623.0050	-0.46790
7626.0010	-0.46990
7629.0000	-0.47130
7631.9990	-0.47310
7635.0000	-0.47450
7638.0030	-0.47560
7641.0000	-0.47670
7644.0030	-0.47860
7647.0020	-0.48040
7649.9980	-0.48210
7652.9990	-0.48380
7655.9960	-0.48520
7659.0000	-0.48650
7662.0000	-0.48740
7665.0000	-0.48830
7668.0010	-0.49020
7670.9140	-0.49170
7673.6500	-0.49300
7676.2140	-0.49420
7678.6090	-0.49510
7680.8390	-0.49540
7682.9050	-0.49600
7684.8090	-0.49650
7686.5570	-0.49690
7688.1530	-0.49700
7689.5980	-0.49690
7690.8880	-0.49780
7692.0370	-0.49780
7693.0420	-0.49760
7693.9110	-0.49740
7694.6410	-0.49720
7695.2350	-0.49680
7695.6970	-0.49660
7696.1020	-0.49580
7696.5000	-0.49510
7696.8990	-0.49560
7697.2980	-0.49580
7697.7010	-0.49550
7698.0980	-0.49450
7698.5010	-0.49470
7698.9000	-0.49460
7699.2990	-0.49350
7699.7010	-0.49350
7700.0990	-0.49320
7700.5020	-0.49260
7700.8990	-0.49200
7701.3000	-0.49120
7701.7000	-0.49020
7702.0990	-0.48910
7702.4980	-0.48820
7702.8970	-0.48700
7703.2990	-0.48520
7703.7000	-0.48370
7704.1000	-0.48180
7704.5010	-0.47980
7704.9020	-0.47690
7705.3000	-0.47360
7705.7000	-0.46980
7706.0980	-0.46480
7706.5000	-0.45820
7706.9010	-0.44890
7707.3020	-0.43470
7707.7030	-0.41190
7708.1010	-0.37310
7708.5000	-0.31530
7708.9000	-0.24790
7709.2980	-0.18440
7709.7020	-0.12740
7710.0990	-0.07554
7710.4970	-0.02863
7710.8990	0.01075
7711.3010	0.04435
7711.7010	0.06970
7712.0990	0.08785
7712.5020	0.09889
7712.9000	0.10450
7713.2990	0.10530
7713.6990	0.10550
7714.1020	0.10960
7714.4990	0.12130
7714.8970	0.14420
7715.3000	0.17610
7715.7000	0.21490
7716.0990	0.25660
7716.5000	0.29850
7716.8980	0.33970
7717.2970	0.38050
7717.6990	0.42160
7718.1000	0.46220
7718.5020	0.50160
7718.8980	0.53990
7719.3000	0.57430
7719.7030	0.60590
7720.0990	0.63530
7720.5010	0.66300
7720.8980	0.69060
7721.3010	0.71980
7721.7010	0.75130
7722.1020	0.78520
7722.3010	0.80310
7722.6980	0.83850
7723.0930	0.87340
7723.4850	0.90680
7723.8820	0.93790
7724.2770	0.96600
7724.6820	0.99230
7725.0980	1.01400
7725.5300	1.03400
7725.9730	1.05300
7726.4330	1.07100
7726.9130	1.08800
7727.4140	1.10300
7727.9190	1.11500
7728.4330	1.12500
7728.9500	1.13100
7729.4810	1.13500
7730.0090	1.13700
7730.5530	1.14000
7731.1010	1.14400
7731.6540	1.14900
7732.2140	1.15400
7732.7830	1.15900
7733.3570	1.15900
7733.9390	1.15600
7734.5280	1.14800
7735.1210	1.13900
7735.7230	1.12700
7736.3330	1.11500
7736.9480	1.10400
7737.5720	1.09400
7738.1990	1.08600
7738.8340	1.07800
7739.4800	1.07000
7740.1290	1.06200
7740.7860	1.05600
7741.4480	1.05100
7742.1190	1.04600
7742.7980	1.04300
7743.4810	1.04000
7744.1750	1.03800
7744.8720	1.03700
7745.5750	1.03900
7746.2870	1.04300
7747.0050	1.04900
7747.7330	1.05800
7748.4620	1.06900
7749.2040	1.08100
7749.9500	1.09500
7750.7010	1.11100
7751.4640	1.12800
7752.2280	1.14500
7753.0020	1.16300
7753.7790	1.18100
7754.5690	1.19900
7755.3620	1.21500
7756.1640	1.22900
7756.9740	1.24000
7757.7860	1.24700
7758.6050	1.25000
7759.4360	1.25000
7760.2720	1.24500
7761.1120	1.23600
7761.9630	1.22200
7762.8180	1.20200
7763.6830	1.18000
7764.5490	1.15600
7765.4270	1.13100
7766.3100	1.10600
7767.1980	1.08000
7768.0960	1.05600
7769.0010	1.03400
7769.9080	1.01700
7770.8300	1.00300
7771.7510	0.99200
7772.6810	0.98360
7773.6200	0.97690
7774.5640	0.97110
7775.5180	0.96540
7776.4790	0.95980
7777.4410	0.95520
7778.4140	0.95180
7779.3940	0.95090
7780.3810	0.95310
7781.3710	0.95890
7782.3710	0.96630
7783.3810	0.97540
7784.3920	0.98520
7785.4120	0.99460
7786.4390	1.00400
7787.4740	1.01500
7788.5160	1.02600
7789.5620	1.03700
7790.6200	1.04600
7791.6790	1.05300
7792.7480	1.05900
7793.8210	1.06500
7794.9040	1.07100
7795.9950	1.08000
7797.0910	1.09200
7798.1920	1.10700
7799.2980	1.12400
7800.4170	1.14300
7801.5430	1.16200
7802.6710	1.18200
7803.8070	1.20000
7804.9490	1.21400
7806.1010	1.22300
7807.2600	1.22600
7808.4230	1.22300
7809.5940	1.21500
7810.7710	1.20400
7811.9570	1.19300
7813.1480	1.18000
7814.3490	1.16700
7815.5540	1.15200
7816.7660	1.13500
7817.9850	1.11700
7819.2130	1.09700
7820.4440	1.07600
7821.6830	1.05600
7822.9300	1.03500
7824.1840	1.01400
7825.4440	0.99270
7826.7100	0.97190
7827.9850	0.95290
7829.2670	0.93610
7830.5550	0.92230
7831.8470	0.91090
7833.1500	0.90290
7834.4550	0.89880
7835.7750	0.89810
7837.0990	0.90050
7838.4260	0.90460
7839.7600	0.90890
7841.1050	0.91310
7842.4530	0.91720
7843.8100	0.92120
7845.1700	0.92560
7846.5450	0.93080
7847.9210	0.93730
7849.3030	0.94270
7850.6920	0.94840
7852.0900	0.95370
7853.4960	0.95930
7854.9070	0.96620
7856.3250	0.97600
7857.7520	0.98850
7859.1840	1.00400
7860.6220	1.02200
7862.0670	1.04100
7863.5200	1.05900
7864.9770	1.07700
7866.4440	1.09400
7867.9190	1.11100
7869.3970	1.12500
7870.8820	1.13600
7872.3770	1.14500
7873.8790	1.15000
7875.3840	1.15200
7876.8980	1.14900
7878.4200	1.14100
7879.9460	1.12800
7881.4840	1.11100
7883.0250	1.08900
7884.5720	1.06500
7886.1260	1.03700
7887.6910	1.00700
7889.2590	0.97580
7890.8350	0.94420
7892.4170	0.91310
7894.0070	0.88530
7895.6050	0.86240
7897.2050	0.84520
7898.8160	0.83500
7900.4330	0.83160
7902.0570	0.83440
7903.6890	0.84150
7905.3250	0.85060
7906.9690	0.86140
7908.6170	0.87130
7910.2790	0.88090
7911.9460	0.88960
7913.6180	0.89590
7915.2930	0.90050
7916.9810	0.90380
7918.6710	0.90580
7920.3710	0.90690
7922.0780	0.90720
7923.7900	0.90710
7925.5080	0.90650
7927.2370	0.90560
7928.9690	0.90370
7930.7080	0.90250
7932.4580	0.90060
7934.2130	0.89960
7935.9730	0.89880
7937.7420	0.89880
7939.5170	0.90060
7941.2990	0.90510
7943.0870	0.91270
7944.8840	0.92240
7946.6850	0.93300
7948.4910	0.94300
7950.3050	0.95210
7952.1310	0.96060
7953.9590	0.96820
7955.7960	0.97260
7957.6400	0.97410
7959.4910	0.97200
7961.3460	0.96600
7963.2100	0.95760
7965.0810	0.94460
7966.9600	0.92890
7968.8440	0.91110
7970.7360	0.89290
7972.6330	0.87580
7974.5400	0.86010
7976.4490	0.84710
7978.3710	0.83720
7980.2930	0.82920
7982.2240	0.82240
7984.1670	0.81630
7986.1140	0.81020
7988.0660	0.80460
7990.0240	0.79830
7991.9920	0.79230
7993.9650	0.78610
7995.9460	0.78180
7997.9330	0.77870
7999.9290	0.77750
8001.9290	0.77780
8003.9380	0.77970
8005.9500	0.78260
8007.9710	0.78570
8010.0000	0.78890
8012.0370	0.79210
8014.0780	0.79550
8016.1270	0.79880
8018.1850	0.80160
8020.2430	0.80360
8022.3170	0.80480
8024.3910	0.80550
8026.4750	0.80590
8028.5660	0.80620
8030.6630	0.80750
8032.7700	0.81030
8034.8760	0.81270
8036.9950	0.81550
8039.1210	0.81730
8041.2520	0.81820
8043.3870	0.81820
8045.5340	0.81810
8047.6840	0.81670
8049.8440	0.81410
8052.0120	0.81050
8054.1830	0.80540
8056.3610	0.79990
8058.5490	0.79220
8060.7410	0.78400
8062.9420	0.77560
8065.1510	0.76730
8067.3610	0.76050
8069.5850	0.75440
8071.8070	0.74970
8074.0440	0.74640
8076.2850	0.74330
8078.5330	0.74000
8080.7880	0.73510
8083.0470	0.72920
8085.3180	0.72260
8087.5910	0.71570
8089.8730	0.70970
8092.1630	0.70520
8094.4570	0.70140
8096.7630	0.69850
8099.0730	0.69530
8101.3900	0.69280
8103.7090	0.69090
8106.0400	0.68920
8108.3770	0.68800
8110.7230	0.68720
8113.0710	0.68690
8115.4320	0.68670
8117.7940	0.68700
8120.1670	0.68820
8122.5440	0.68920
8124.9300	0.69060
8127.3210	0.69100
8129.7210	0.69190
8132.1270	0.69200
8134.5390	0.69130
8136.9610	0.69030
8139.3830	0.68870
8141.8150	0.68750
8144.2590	0.68680
8146.7030	0.68600
8149.1570	0.68510
8151.6200	0.68370
8154.0840	0.68160
8156.5590	0.67900
8159.0450	0.67530
8161.5290	0.67070
8164.0230	0.66580
8166.5270	0.66080
8169.0370	0.65610
8171.5500	0.65200
8174.0730	0.64740
8176.5990	0.64440
8179.1360	0.64070
8181.6790	0.63820
8184.2270	0.63580
8186.7860	0.63340
8189.3490	0.63040
8191.9190	0.62740
8194.4980	0.62400
8197.0790	0.62050
8199.6700	0.61670
8202.2720	0.61270
8204.8740	0.60850
8207.4850	0.60470
8210.1050	0.60110
8212.7270	0.59770
8215.3610	0.59410
8217.9990	0.59040
8220.6420	0.58700
8223.2960	0.58420
8225.9580	0.58110
8228.6220	0.57860
8231.2960	0.57630
8233.9760	0.57420
8236.6630	0.57330
8239.3550	0.57190
8242.0570	0.57090
8244.7620	0.57000
8247.4770	0.56940
8250.1980	0.56910
8252.9270	0.56910
8255.6600	0.56910
8258.4080	0.56900
8261.1510	0.56900
8263.9040	0.56780
8266.6690	0.56640
8269.4370	0.56440
8272.2150	0.56170
8274.9950	0.55860
8277.7890	0.55520
8280.5840	0.55190
8283.3890	0.54840
8286.1950	0.54500
8289.0150	0.54150
8291.8380	0.53810
8294.6710	0.53470
8297.5080	0.53080
8300.3530	0.52700
8303.2060	0.52340
8306.0610	0.52010
8308.9270	0.51710
8311.7970	0.51420
8314.6770	0.51180
8317.5650	0.50880
8320.4560	0.50620
8323.3560	0.50330
8326.2630	0.50020
8329.1740	0.49750
8332.0940	0.49530
8335.0200	0.49250
8337.9560	0.48940
8340.8940	0.48660
8343.8430	0.48380
8346.7950	0.48110
8349.7610	0.47850
8352.7260	0.47610
8355.7000	0.47370
8358.6820	0.47160
8361.6720	0.46910
8364.6650	0.46670
8367.6700	0.46440
8370.6790	0.46280
8373.6960	0.46080
8376.7150	0.45840
8379.7470	0.45630
8382.7850	0.45450
8385.8260	0.45220
8388.8770	0.45020
8391.9350	0.44810
8394.9960	0.44600
8398.0690	0.44430
8401.1480	0.44220
8404.2330	0.44030
8407.3200	0.43810
8410.4220	0.43550
8413.5260	0.43290
8416.6390	0.43030
8419.7540	0.42770
8422.8820	0.42490
8426.0150	0.42230
8429.1550	0.41950
8432.3000	0.41660
8435.4570	0.41360
8438.6160	0.41050
8441.7790	0.40800
8444.9540	0.40530
8448.1350	0.40200
8451.3230	0.39910
8454.5180	0.39600
8457.7170	0.39310
8460.9270	0.39020
8464.1400	0.38730
8467.3640	0.38440
8470.5920	0.38170
8473.8270	0.37940
8477.0700	0.37640
8480.3200	0.37350
8483.5720	0.37060
8486.8380	0.36810
8490.1080	0.36540
8493.3810	0.36260
8496.6640	0.36010
8499.9590	0.35750
8503.2570	0.35530
8506.5590	0.35290
8509.8670	0.35030
8513.1850	0.34840
8516.5110	0.34570
8519.8440	0.34340
8523.1810	0.34110
8526.5260	0.33860
8529.8790	0.33640
8533.2370	0.33410
8536.6030	0.33170
8539.9760	0.32930
8543.3520	0.32670
8546.7440	0.32430
8550.1350	0.32160
8553.5360	0.31910
8556.9430	0.31670
8560.3560	0.31430
8563.7770	0.31220
8567.2020	0.30970
8570.6390	0.30740
8574.0790	0.30480
8577.5300	0.30220
8580.9800	0.29980
8584.4420	0.29710
8587.9130	0.29430
8591.3880	0.29140
8594.8710	0.28900
8598.3560	0.28600
8601.8550	0.28340
8605.3600	0.28050
8608.8690	0.27840
8612.3870	0.27530
8615.9080	0.27290
8619.4380	0.27010
8622.9750	0.26740
8626.5200	0.26470
8630.0710	0.26170
8633.6270	0.25900
8637.1910	0.25660
8640.7620	0.25380
8644.3420	0.25120
8647.9290	0.24880
8651.5200	0.24650
8655.1200	0.24400
8658.7250	0.24120
8662.3400	0.23870
8665.9570	0.23620
8669.5830	0.23400
8673.2170	0.23150
8676.8560	0.22870
8680.5050	0.22620
8684.1580	0.22370
8687.8200	0.22130
8691.4830	0.21920
8695.1600	0.21680
8698.8400	0.21400
8702.5300	0.21140
8706.2230	0.20890
8709.9250	0.20650
8713.6340	0.20420
8717.3510	0.20160
8721.0720	0.19870
8724.8020	0.19610
8728.5350	0.19400
8732.2800	0.19130
8736.0300	0.18860
8739.7860	0.18590
8743.5520	0.18330
8747.3200	0.18130
8751.0980	0.17830
8754.8820	0.17560
8758.6750	0.17350
8762.4690	0.17080
8766.2770	0.16790
8770.0880	0.16520
8773.9050	0.16260
8777.7320	0.15980
8781.5620	0.15730
8785.4030	0.15480
8789.2490	0.15190
8793.1000	0.14900
8796.9580	0.14620
8800.8260	0.14350
8804.6990	0.14130
8808.5780	0.13860
8812.4680	0.13560
8816.3590	0.13290
8820.2630	0.13030
8824.1680	0.12800
8828.0830	0.12560
8832.0060	0.12270
8835.9310	0.11990
8839.8660	0.11790
8843.8090	0.11520
8847.7550	0.11260
8851.7130	0.11000
8855.6770	0.10730
8859.0020	0.10500