# DIAMOND LIGHT SOURCE
# Instrument: I20-XAS Date: Mon, 5 Aug 2013 16:14:12 BST
# Ring energy: 3.00092 GeV
# Initial ring current: 300.83517 mA
# Filling mode: Standby
# Wiggler gap selected: 20.00000 mm
#  
# Primary slits:  vertical gap= 0.12005 mm; horizontal gap= 0.80017 mm; vertical offset= 0.02498 mm; horizontal offset= 0.00002 mm
# Secondary slits:  vertical gap= 2.99900 mm; horizontal gap= 23.49900 mm; vertical offset= -0.00050 mm; horizontal offset= 0.25950 mm
# Experimental slits:  vertical gap= 1.50000 mm; horizontal gap= 4.99996 mm; vertical offset= 0.64000 mm; horizontal offset= 0.00008 mm
#  
# Optic Hutch Mirrors Coating: Rhodium
# Monochromator crystal cut: Si(111)
# Incident angle for Harmonic Rejection Mirrors: -7.92 mrad
# Harmonic rejection mirrors coating: Rhodium
# I0 Stanford sensitivity: 2 uA/V Offsets: 20 nA
# It Stanford sensitivity: 2 uA/V Offsets: 10 nA
# Iref Stanford sensitivity: 500 nA/V Offsets: 2 nA
# Atn5 (Xia) filters: Al 0.2 mm In Al 0.5 mm Out Al 1.0 mm Out Al 3.0 mm Out
# Sample stage: x: 0.00 mm y: 15.80 mm z: 4.00 mm rot: -0.00 deg roll: 0.00 deg pitch: 0.00 deg
#
# Ascii output file name: 'Cu_foil_34819_1.dat'
# Nexus output file: '/dls/i20/data/2013/cm5945-3/Cu_K_edge/nexus/34819_1.nxs'
# The XML files, ScanParameters, SampleParameters, DetectorParameters, OutputParameters
# are stored in the nexus file.
#
# Sample name: Cu_foil
# Sample description: Copper foil
##
#
#
# Dark current intensity was collected over 1.00s. Average counts per second: I0 1047.00   It 416.00   Iref 235.00
# Dark current has been automatically removed from counts in main scan (I0,It,Iref)
#
# Energy	lnI0It          	
8779.0000	-0.71206
8784.0000	-0.71435
8789.0020	-0.71651
8794.0020	-0.71860
8798.9990	-0.72045
8804.0010	-0.72264
8809.0010	-0.72468
8814.0010	-0.72666
8818.9990	-0.72862
8823.9980	-0.73071
8828.9980	-0.73278
8834.0020	-0.73485
8839.0000	-0.73691
8843.9980	-0.73894
8848.9980	-0.74104
8854.0000	-0.74298
8859.0010	-0.74489
8863.9980	-0.74665
8869.0000	-0.74876
8873.9990	-0.75079
8879.0010	-0.75278
8884.0000	-0.75479
8889.0000	-0.75674
8894.0020	-0.75860
8899.0000	-0.76047
8904.0010	-0.76236
8909.0020	-0.76411
8913.9990	-0.76587
8918.9990	-0.76776
8923.9970	-0.76931
8929.0010	-0.77082
8933.7910	-0.77226
8938.1880	-0.77355
8942.1800	-0.77487
8945.7980	-0.77573
8949.0450	-0.77668
8951.9340	-0.77732
8954.4730	-0.77744
8956.6820	-0.77772
8958.5640	-0.77783
8960.1290	-0.77756
8961.3980	-0.77756
8962.3730	-0.77716
8963.0700	-0.77707
8963.4990	-0.77681
8963.8000	-0.77679
8964.1010	-0.77674
8964.4040	-0.77663
8964.7020	-0.77646
8965.0030	-0.77625
8965.2990	-0.77615
8965.6020	-0.77602
8965.8980	-0.77574
8966.2010	-0.77554
8966.5020	-0.77538
8966.7970	-0.77525
8967.0970	-0.77506
8967.4000	-0.77471
8967.7010	-0.77453
8968.0010	-0.77424
8968.2990	-0.77391
8968.5980	-0.77350
8968.9000	-0.77315
8969.1990	-0.77275
8969.4990	-0.77217
8969.8000	-0.77185
8970.1030	-0.77141
8970.3980	-0.77095
8970.6980	-0.77032
8970.9980	-0.76982
8971.3020	-0.76914
8971.6000	-0.76846
8971.9030	-0.76763
8972.2010	-0.76671
8972.5000	-0.76557
8972.8010	-0.76438
8973.1010	-0.76325
8973.3990	-0.76185
8973.7000	-0.76041
8973.9990	-0.75881
8974.3010	-0.75712
8974.6030	-0.75485
8974.9030	-0.75238
8975.2030	-0.74962
8975.5020	-0.74626
8975.8010	-0.74226
8976.0960	-0.73747
8976.3990	-0.73150
8976.7000	-0.72431
8977.0010	-0.71500
8977.2980	-0.70264
8977.6030	-0.68563
8977.9010	-0.66175
8978.1990	-0.62685
8978.5000	-0.57694
8978.8010	-0.51129
8979.1000	-0.43635
8979.4010	-0.36506
8979.6990	-0.30873
8980.0010	-0.26949
8980.3000	-0.24428
8980.5980	-0.22904
8980.9010	-0.22135
8981.2030	-0.22045
8981.5010	-0.22524
8981.8020	-0.23388
8982.0990	-0.24413
8982.4010	-0.25386
8982.7000	-0.26094
8983.0010	-0.26387
8983.3040	-0.26116
8983.6010	-0.25283
8983.8990	-0.24021
8984.2000	-0.22486
8984.5000	-0.20888
8984.8000	-0.19378
8985.0990	-0.18023
8985.3960	-0.16800
8985.7020	-0.15620
8986.0030	-0.14399
8986.3020	-0.13086
8986.6000	-0.11602
8986.9000	-0.09966
8987.2000	-0.08176
8987.4970	-0.06154
8987.8000	-0.03919
8988.0990	-0.01510
8988.4000	0.01053
8988.6970	0.03826
8989.0030	0.06772
8989.2980	0.09916
8989.6010	0.13133
8989.8970	0.16393
8990.1980	0.19623
8990.5000	0.22778
8990.8010	0.25839
8991.1010	0.28771
8991.4000	0.31539
8991.6950	0.34088
8992.0000	0.36369
8992.3000	0.38345
8992.6000	0.39939
8992.9020	0.41129
8993.2020	0.41800
8993.5000	0.41970
8993.7990	0.41724
8994.1010	0.41110
8994.4030	0.40218
8994.5000	0.39869
8994.8110	0.38710
8995.1350	0.37378
8995.4770	0.35926
8995.8370	0.34423
8996.2180	0.32934
8996.6180	0.31531
8997.0320	0.30254
8997.4750	0.29268
8997.9370	0.28633
8998.4200	0.28522
8998.9230	0.29069
8999.4520	0.30418
8999.9870	0.32497
9000.5310	0.35209
9001.0760	0.38214
9001.6260	0.40952
9002.1870	0.42894
9002.7540	0.43478
9003.3290	0.42736
9003.9110	0.40973
9004.4970	0.38648
9005.0900	0.36234
9005.6970	0.34032
9006.3040	0.32236
9006.9200	0.30757
9007.5400	0.29423
9008.1690	0.28046
9008.8060	0.26550
9009.4520	0.25177
9010.1020	0.24166
9010.7550	0.23675
9011.4180	0.23564
9012.0870	0.23757
9012.7640	0.24096
9013.4510	0.24538
9014.1420	0.25111
9014.8370	0.25838
9015.5440	0.26782
9016.2550	0.27944
9016.9750	0.29286
9017.6990	0.30749
9018.4270	0.32249
9019.1680	0.33707
9019.9170	0.35094
9020.6680	0.36388
9021.4270	0.37709
9022.1920	0.39040
9022.9670	0.40289
9023.7450	0.41333
9024.5350	0.42050
9025.3280	0.42273
9026.1240	0.41931
9026.9340	0.40983
9027.7530	0.39621
9028.5680	0.37995
9029.3980	0.36256
9030.2370	0.34503
9031.0750	0.32781
9031.9220	0.31239
9032.7800	0.30006
9033.6400	0.29064
9034.5090	0.28367
9035.3810	0.27931
9036.2650	0.27735
9037.1600	0.27767
9038.0530	0.27987
9038.9540	0.28409
9039.8730	0.28902
9040.7850	0.29350
9041.7100	0.29629
9042.6380	0.29688
9043.5750	0.29555
9044.5250	0.29260
9045.4750	0.29108
9046.4330	0.29156
9047.3970	0.29499
9048.3690	0.30045
9049.3450	0.30633
9050.3350	0.31122
9051.3270	0.31375
9052.3260	0.31404
9053.3340	0.31339
9054.3440	0.31364
9055.3670	0.31590
9056.3940	0.32023
9057.4280	0.32685
9058.4650	0.33477
9059.5150	0.34255
9060.5690	0.34864
9061.6320	0.35347
9062.6980	0.35745
9063.7720	0.36164
9064.8520	0.36597
9065.9400	0.37132
9067.0390	0.37793
9068.1400	0.38538
9069.2510	0.39296
9070.3650	0.39917
9071.4870	0.40259
9072.6150	0.40206
9073.7540	0.39776
9074.9000	0.39015
9076.0470	0.37942
9077.2040	0.36628
9078.3710	0.35196
9079.5440	0.33856
9080.7170	0.32668
9081.9030	0.31542
9083.0950	0.30490
9084.2900	0.29507
9085.5010	0.28682
9086.7090	0.28125
9087.9300	0.27818
9089.1550	0.27391
9090.3880	0.26765
9091.6300	0.25850
9092.8740	0.24753
9094.1240	0.23635
9095.3840	0.22593
9096.6530	0.21827
9097.9280	0.21402
9099.2070	0.21399
9100.4950	0.21732
9101.7900	0.22365
9103.0920	0.23219
9104.3960	0.24228
9105.7120	0.25292
9107.0310	0.26308
9108.3630	0.27165
9109.6980	0.27899
9111.0430	0.28458
9112.3920	0.28821
9113.7480	0.28972
9115.1080	0.28958
9116.4790	0.28824
9117.8560	0.28730
9119.2410	0.28855
9120.6300	0.29230
9122.0280	0.30000
9123.4310	0.31219
9124.8400	0.32809
9126.2590	0.34564
9127.6850	0.36167
9129.1160	0.37368
9130.5550	0.38040
9131.9990	0.38195
9133.4540	0.37963
9134.9140	0.37485
9136.3760	0.36882
9137.8500	0.36154
9139.3270	0.35272
9140.8130	0.34219
9142.3070	0.32942
9143.8080	0.31456
9145.3150	0.29802
9146.8290	0.28021
9148.3480	0.26164
9149.8770	0.24273
9151.4090	0.22375
9152.9500	0.20528
9154.5000	0.18848
9156.0550	0.17498
9157.6180	0.16587
9159.1880	0.16163
9160.7590	0.16290
9162.3430	0.16997
9163.9330	0.18103
9165.5280	0.19502
9167.1330	0.21021
9168.7380	0.22461
9170.3590	0.23675
9171.9830	0.24593
9173.6140	0.25201
9175.2500	0.25562
9176.8930	0.25626
9178.5440	0.25492
9180.1980	0.25232
9181.8650	0.24928
9183.5390	0.24662
9185.2130	0.24449
9186.9040	0.24297
9188.5940	0.24158
9190.2910	0.23966
9191.9970	0.23687
9193.7130	0.23338
9195.4300	0.23018
9197.1610	0.22899
9198.8890	0.23111
9200.6320	0.23697
9202.3790	0.24590
9204.1300	0.25639
9205.8910	0.26547
9207.6610	0.27146
9209.4340	0.27400
9211.2140	0.27403
9213.0040	0.27244
9214.7990	0.26987
9216.6000	0.26551
9218.4080	0.25954
9220.2260	0.25194
9222.0460	0.24250
9223.8770	0.23153
9225.7100	0.21965
9227.5540	0.20759
9229.4040	0.19621
9231.2610	0.18572
9233.1250	0.17622
9234.9940	0.16846
9236.8710	0.16281
9238.7570	0.15959
9240.6490	0.15866
9242.5420	0.15924
9244.4480	0.16040
9246.3620	0.16127
9248.2790	0.16144
9250.2070	0.16113
9252.1400	0.16099
9254.0790	0.16117
9256.0200	0.16153
9257.9750	0.16198
9259.9340	0.16278
9261.9000	0.16414
9263.8760	0.16619
9265.8530	0.16833
9267.8420	0.17039
9269.8350	0.17270
9271.8360	0.17406
9273.8440	0.17519
9275.8560	0.17596
9277.8790	0.17631
9279.9100	0.17670
9281.9430	0.17700
9283.9860	0.17735
9286.0330	0.17773
9288.0880	0.17800
9290.1530	0.17808
9292.2230	0.17825
9294.2940	0.17825
9296.3820	0.17774
9298.4690	0.17598
9300.5680	0.17295
9302.6680	0.16907
9304.7780	0.16434
9306.8930	0.15928
9309.0230	0.15415
9311.1520	0.14894
9313.2900	0.14369
9315.4330	0.13856
9317.5880	0.13435
9319.7470	0.13073
9321.9120	0.12814
9324.0840	0.12641
9326.2610	0.12538
9328.4490	0.12376
9330.6400	0.12159
9332.8410	0.11888
9335.0440	0.11489
9337.2590	0.11050
9339.4760	0.10577
9341.7030	0.10154
9343.9410	0.09888
9346.1780	0.09809
9348.4280	0.09787
9350.6810	0.09780
9352.9440	0.09743
9355.2110	0.09665
9357.4880	0.09622
9359.7730	0.09608
9362.0580	0.09595
9364.3550	0.09607
9366.6550	0.09596
9368.9660	0.09585
9371.2780	0.09583
9373.6050	0.09576
9375.9320	0.09559
9378.2690	0.09530
9380.6160	0.09504
9382.9660	0.09471
9385.3220	0.09412
9387.6860	0.09345
9390.0580	0.09265
9392.4360	0.09190
9394.8180	0.09081
9397.2110	0.08941
9399.6110	0.08769
9402.0160	0.08555
9404.4250	0.08281
9406.8500	0.07970
9409.2740	0.07618
9411.7030	0.07238
9414.1470	0.06852
9416.5910	0.06488
9419.0430	0.06183
9421.5070	0.05929
9423.9710	0.05705
9426.4460	0.05511
9428.9280	0.05376
9431.4140	0.05261
9433.9110	0.05097
9436.4080	0.04928
9438.9170	0.04734
9441.4350	0.04540
9443.9540	0.04317
9446.4830	0.04045
9449.0170	0.03771
9451.5590	0.03497
9454.1130	0.03243
9456.6690	0.03025
9459.2300	0.02854
9461.7970	0.02681
9464.3760	0.02516
9466.9620	0.02343
9469.5500	0.02161
9472.1470	0.01994
9474.7520	0.01856
9477.3640	0.01733
9479.9820	0.01637
9482.6070	0.01553
9485.2360	0.01459
9487.8760	0.01408
9490.5240	0.01350
9493.1770	0.01274
9495.8330	0.01217
9498.4980	0.01169
9501.1680	0.01098
9503.8540	0.01002
9506.5390	9.17000e-3
9509.2350	7.83000e-3
9511.9300	6.33000e-3
9514.6410	4.42000e-3
9517.3530	2.09000e-3
9520.0760	-4.90000e-4
9522.8050	-3.34000e-3
9525.5340	-5.96000e-3
9528.2770	-8.88000e-3
9531.0250	-0.01166
9533.7800	-0.01404
9536.5420	-0.01624
9539.3110	-0.01829
9542.0890	-0.02055
9544.8710	-0.02262
9547.6590	-0.02449
9550.4540	-0.02637
9553.2580	-0.02793
9556.0680	-0.02981
9558.8850	-0.03154
9561.7080	-0.03336
9564.5390	-0.03520
9567.3780	-0.03732
9570.2230	-0.03933
9573.0750	-0.04126
9575.9310	-0.04322
9578.7920	-0.04526
9581.6680	-0.04729
9584.5460	-0.04939
9587.4270	-0.05117
9590.3240	-0.05289
9593.2190	-0.05460
9596.1280	-0.05628
9599.0390	-0.05793
9601.9610	-0.05936
9604.8840	-0.06082
9607.8210	-0.06234
9610.7610	-0.06385
9613.7080	-0.06534
9616.6610	-0.06684
9619.6190	-0.06824
9622.5890	-0.06962
9625.5650	-0.07085
9628.5490	-0.07251
9631.5330	-0.07410
9634.5260	-0.07580
9637.5260	-0.07729
9640.5380	-0.07890
9643.5560	-0.08092
9646.5730	-0.08292
9649.6080	-0.08461
9652.6470	-0.08671
9655.6870	-0.08843
9658.7370	-0.09032
9661.7920	-0.09255
9664.8550	-0.09439
9667.9290	-0.09642
9671.0020	-0.09851
9674.0870	-0.10050
9677.1760	-0.10244
9680.2770	-0.10437
9683.3820	-0.10626
9686.4980	-0.10825
9689.6150	-0.11025
9692.7420	-0.11230
9695.8730	-0.11429
9699.0100	-0.11618
9702.1580	-0.11805
9705.3090	-0.11997
9708.4690	-0.12186
9711.6330	-0.12379
9714.8070	-0.12552
9717.9900	-0.12759
9721.1780	-0.12942
9724.3680	-0.13137
9727.5690	-0.13320
9730.7800	-0.13512
9733.9910	-0.13691
9737.2140	-0.13871
9740.4410	-0.14034
9743.6780	-0.14194
9746.9170	-0.14354
9750.1700	-0.14526
9753.4230	-0.14682
9756.6850	-0.14846
9759.9570	-0.15033
9763.2310	-0.15211
9766.5140	-0.15388
9769.8060	-0.15559
9773.1030	-0.15735
9776.4050	-0.15912
9779.7190	-0.16086
9783.0350	-0.16276
9786.3580	-0.16457
9789.6870	-0.16646
9793.0270	-0.16848
9796.3740	-0.17025
9799.7230	-0.17202
9803.0850	-0.17380
9806.4470	-0.17554
9809.8190	-0.17749
9813.2010	-0.17946
9816.5860	-0.18143
9819.9790	-0.18326
9823.3770	-0.18526
9826.7840	-0.18724
9830.2010	-0.18911
9833.6180	-0.19098
9837.0440	-0.19275
9840.4790	-0.19484
9843.9170	-0.19683
9847.3680	-0.19874
9850.8240	-0.20072
9854.2820	-0.20265
9857.7550	-0.20463
9861.2270	-0.20628
9864.7120	-0.20822
9868.1990	-0.21013
9871.6960	-0.21191
9875.1990	-0.21374
9878.7070	-0.21552
9882.2200	-0.21755
9885.7460	-0.21938
9889.2730	-0.22126
9892.8120	-0.22312
9896.3590	-0.22477
9899.9070	-0.22646
9903.4620	-0.22835
9907.0300	-0.23016
9910.6010	-0.23204
9914.1810	-0.23393
9917.7630	-0.23576
9921.3530	-0.23760
9924.9510	-0.23941
9928.5580	-0.24119
9932.1720	-0.24307
9935.7890	-0.24471
9939.4170	-0.24667
9943.0480	-0.24860
9946.6890	-0.25049
9950.3330	-0.25242
9953.9880	-0.25417
9957.6530	-0.25606
9961.3150	-0.25806
9964.9920	-0.26003
9968.6700	-0.26189
9972.3570	-0.26354
9976.0560	-0.26538
9979.7580	-0.26727
9983.4630	-0.26937
9987.1770	-0.27123
9990.9020	-0.27322
9994.6310	-0.27515
9998.3650	-0.27694
10002.1070	-0.27868
10005.8540	-0.28058
10009.6100	-0.28253
10013.3760	-0.28457
10017.1440	-0.28648
10020.9240	-0.28838
10024.7100	-0.29023
10028.4990	-0.29200
10032.2940	-0.29388
10036.1020	-0.29572
10039.9110	-0.29730
10043.7270	-0.29923
10047.5520	-0.30116
10051.3850	-0.30298
10055.2230	-0.30497
10059.0700	-0.30682
10062.9200	-0.30865
10066.7820	-0.31027
10070.6480	-0.31216
10074.5190	-0.31394
10078.4020	-0.31606
10082.2870	-0.31799
10086.1800	-0.31964
10090.0820	-0.32164
10093.9880	-0.32356
10097.9030	-0.32545
10101.8270	-0.32694
10105.7530	-0.32886
10109.6880	-0.33095
10113.6270	-0.33284
10117.5790	-0.33446
10121.5300	-0.33637
10125.4920	-0.33829
10129.4600	-0.34030
10133.4360	-0.34219
10137.4200	-0.34404
10141.4100	-0.34588
10145.4100	-0.34767
10149.4100	-0.34956
10153.4210	-0.35149
10157.4360	-0.35342
10161.4570	-0.35524
10165.4890	-0.35713
10169.5260	-0.35906
10173.5700	-0.36096
10177.6240	-0.36282
10181.6810	-0.36473
10185.7480	-0.36654
10189.8160	-0.36854
10193.9020	-0.37048
10197.9820	-0.37237
10202.0760	-0.37415
10206.1750	-0.37607
10210.2820	-0.37799
10214.3960	-0.37993
10218.5140	-0.38181
10222.6400	-0.38362
10226.7670	-0.38548
10229.0010	-0.38649