# DIAMOND LIGHT SOURCE
# Instrument: I20-XAS Date: Sat, 13 Jul 2013 08:51:41 BST
# Ring energy: 3.00091 GeV
# Initial ring current: 301.60874 mA
# Filling mode: Standby
# Wiggler gap selected: 20.00000 mm
#  
# Primary slits:  vertical gap= 0.11999 mm; horizontal gap= 0.80009 mm; vertical offset= 0.02500 mm; horizontal offset= 0.00001 mm
# Secondary slits:  vertical gap= 2.99900 mm; horizontal gap= 23.49900 mm; vertical offset= -0.00050 mm; horizontal offset= 0.25950 mm
# Experimental slits:  vertical gap= 1.50000 mm; horizontal gap= 4.99996 mm; vertical offset= -3.75000 mm; horizontal offset= 0.00008 mm
#  
# Optic Hutch Mirrors Coating: Rhodium
# Monochromator crystal cut: Si(111)
# Incident angle for Harmonic Rejection Mirrors: -2.92 mrad
# Harmonic rejection mirrors coating: Rhodium
# I0 Stanford sensitivity: 2 uA/V Offsets: 10 nA
# It Stanford sensitivity: 2 uA/V Offsets: 10 nA
# Iref Stanford sensitivity: 1 uA/V Offsets: 5 nA
# Atn5 (Xia) filters: 0.2mm Al Out 0.5mm Al Out 1.0mm Al Out 3.00mm Al In
# Sample stage: x: -2.00 mm y: 18.00 mm z: -1.50 mm rot: -0.00 deg roll: 0.00 deg pitch: 0.00 deg
#
# Ascii output file name: 'Nb_foil_33867_1.dat'
# Nexus output file: '/dls/i20/data/2013/sp6922-1/Nb_Kedge/nexus/33867_1.nxs'
# The XML files, ScanParameters, SampleParameters, DetectorParameters, OutputParameters
# are stored in the nexus file.
#
# Sample name: Nb_foil
# Sample description: Nb foil
##
#
#
# Dark current intensity was collected over 3.00s. Average counts per second: I0 70.67   It 422.33   Iref 490.33
# Dark current has been automatically removed from counts in main scan (I0,It,Iref)
#
# Energy	lnI0It          	
18799.9980	-0.63820
18804.9970	-0.63873
18809.9970	-0.63933
18815.0100	-0.63992
18819.9950	-0.64054
18825.0070	-0.64110
18829.9930	-0.64166
18835.0020	-0.64221
18840.0070	-0.64277
18844.9990	-0.64331
18849.9920	-0.64375
18855.0000	-0.64423
18859.9960	-0.64474
18865.0140	-0.64525
18870.0000	-0.64566
18874.9910	-0.64603
18880.0000	-0.64644
18884.9980	-0.64677
18889.9930	-0.64709
18895.0070	-0.64736
18900.0090	-0.64758
18904.8380	-0.64768
18909.3760	-0.64777
18913.6360	-0.64777
18917.5940	-0.64768
18921.2360	-0.64754
18924.6250	-0.64734
18927.7260	-0.64706
18930.5430	-0.64681
18933.1030	-0.64650
18935.4020	-0.64610
18937.4570	-0.64570
18939.2450	-0.64540
18940.7820	-0.64500
18942.0990	-0.64470
18943.1590	-0.64436
18943.9840	-0.64413
18944.6050	-0.64396
18945.0930	-0.64377
18945.6050	-0.64363
18946.1110	-0.64345
18946.5940	-0.64332
18947.1000	-0.64313
18947.6030	-0.64302
18948.0950	-0.64274
18948.6010	-0.64250
18949.0950	-0.64226
18949.6050	-0.64207
18950.1000	-0.64187
18950.6060	-0.64161
18951.1090	-0.64137
18951.5950	-0.64107
18952.0990	-0.64087
18952.6000	-0.64060
18953.0990	-0.64028
18953.5880	-0.64004
18954.0930	-0.63972
18954.6040	-0.63936
18955.0990	-0.63905
18955.6020	-0.63875
18956.0970	-0.63835
18956.6080	-0.63796
18957.0900	-0.63753
18957.5960	-0.63722
18958.1020	-0.63680
18958.5950	-0.63638
18959.0980	-0.63593
18959.6000	-0.63547
18960.1090	-0.63500
18960.5970	-0.63453
18961.1010	-0.63393
18961.6100	-0.63338
18962.0980	-0.63282
18962.6050	-0.63225
18963.1090	-0.63171
18963.5910	-0.63101
18964.1060	-0.63034
18964.6130	-0.62961
18965.0990	-0.62888
18965.5970	-0.62807
18966.0950	-0.62723
18966.6010	-0.62639
18967.0990	-0.62537
18967.6030	-0.62445
18968.1060	-0.62352
18968.5900	-0.62238
18969.1030	-0.62127
18969.5970	-0.62003
18970.0900	-0.61870
18970.6130	-0.61738
18971.1060	-0.61598
18971.5950	-0.61444
18972.1040	-0.61273
18972.5960	-0.61098
18973.0960	-0.60906
18973.5990	-0.60701
18974.1050	-0.60480
18974.5990	-0.60244
18975.1020	-0.59980
18975.6070	-0.59698
18976.1030	-0.59383
18976.5970	-0.59046
18977.1040	-0.58662
18977.6110	-0.58249
18978.0960	-0.57776
18978.5940	-0.57250
18979.1010	-0.56651
18979.6060	-0.55969
18980.1050	-0.55189
18980.6080	-0.54278
18981.1020	-0.53206
18981.5920	-0.51944
18982.1010	-0.50444
18982.6020	-0.48545
18983.1180	-0.46147
18983.6040	-0.43132
18984.1020	-0.39351
18984.6100	-0.34736
18985.1040	-0.29325
18985.6160	-0.23259
18986.0930	-0.17094
18986.5940	-0.11469
18987.0990	-0.06903
18987.5890	-0.03633
18988.0900	-0.01444
18988.5980	7.70000e-4
18989.1030	0.01417
18989.6000	0.02921
18990.0990	0.04734
18990.6090	0.06929
18991.0970	0.09475
18991.5940	0.12337
18992.0930	0.15447
18992.5970	0.18787
18993.1070	0.22279
18993.5910	0.25899
18994.1100	0.29620
18994.6070	0.33460
18995.0950	0.37471
18995.6050	0.41783
18996.1180	0.46492
18996.6080	0.51612
18997.0900	0.57097
18997.6110	0.62834
18998.0910	0.68555
18998.5920	0.74052
18999.0960	0.79123
18999.6090	0.83602
19000.0970	0.87370
19000.5950	0.90408
19001.0940	0.92676
19001.6030	0.94159
19002.1000	0.94858
19002.5980	0.94761
19003.1130	0.93910
19003.5900	0.92416
19004.1030	0.90490
19004.6010	0.88346
19005.1140	0.86224
19005.6000	0.84350
19006.1020	0.82872
19006.5800	0.81827
19007.1020	0.81285
19007.6020	0.81157
19008.0970	0.81386
19008.5970	0.81901
19009.1060	0.82640
19009.6130	0.83452
19010.0970	0.84267
19010.6060	0.85050
19011.0980	0.85685
19011.6110	0.86182
19012.1020	0.86520
19012.6070	0.86683
19013.0940	0.86716
19013.5900	0.86621
19014.0960	0.86468
19014.6060	0.86284
19015.1060	0.86130
19015.5910	0.86030
19016.1130	0.86048
19016.6090	0.86151
19017.1050	0.86407
19017.6060	0.86791
19018.0990	0.87313
19018.6020	0.87947
19019.1050	0.88649
19019.6050	0.89404
19020.0970	0.90175
19020.6040	0.90970
19021.0940	0.91694
19021.5920	0.92460
19022.1040	0.93201
19022.6000	0.93948
19023.0990	0.94705
19023.6080	0.95481
19024.1050	0.96251
19024.5950	0.96992
19025.0950	0.97729
19025.5940	0.98392
19026.0880	0.98917
19026.6020	0.99362
19027.1060	0.99571
19027.3990	0.99634
19027.9130	0.99516
19028.4720	0.99083
19029.0760	0.98348
19029.7280	0.97165
19030.4320	0.95618
19031.1760	0.93733
19031.9770	0.91677
19032.8540	0.89613
19033.7880	0.87668
19034.7640	0.85986
19035.8310	0.84673
19036.9290	0.83819
19038.0440	0.83447
19039.1870	0.83437
19040.3380	0.83809
19041.4870	0.84436
19042.6700	0.85134
19043.8500	0.85791
19045.0330	0.86214
19046.2400	0.86328
19047.4680	0.86145
19048.6910	0.85727
19049.9340	0.85184
19051.1900	0.84604
19052.4540	0.83992
19053.7330	0.83431
19055.0230	0.82981
19056.3250	0.82831
19057.6440	0.83031
19058.9860	0.83741
19060.3120	0.84911
19061.6650	0.86397
19063.0250	0.87953
19064.4030	0.89327
19065.7990	0.90284
19067.1890	0.90664
19068.5980	0.90371
19070.0370	0.89393
19071.4650	0.87942
19072.9240	0.86238
19074.3850	0.84584
19075.8530	0.83289
19077.3460	0.82481
19078.8330	0.82179
19080.3490	0.82224
19081.8690	0.82404
19083.4140	0.82578
19084.9480	0.82645
19086.5070	0.82619
19088.0840	0.82541
19089.6720	0.82506
19091.2710	0.82499
19092.8710	0.82636
19094.5020	0.82906
19096.1270	0.83411
19097.7720	0.84054
19099.4310	0.84823
19101.1080	0.85513
19102.7850	0.86051
19104.4780	0.86325
19106.1780	0.86254
19107.8940	0.85797
19109.6300	0.85078
19111.3760	0.84226
19113.1190	0.83267
19114.8940	0.82131
19116.6740	0.80975
19118.4700	0.79858
19120.2630	0.78933
19122.0800	0.78332
19123.9060	0.77887
19125.7500	0.77604
19127.6160	0.77347
19129.4720	0.77160
19131.3420	0.77102
19133.2320	0.77258
19135.1290	0.77600
19137.0420	0.78040
19138.9620	0.78451
19140.9050	0.78775
19142.8530	0.79024
19144.8100	0.79158
19146.7940	0.79141
19148.7900	0.79038
19150.7750	0.78996
19152.7990	0.79267
19154.8160	0.79978
19156.8490	0.81049
19158.8940	0.82198
19160.9510	0.83197
19163.0190	0.83796
19165.1190	0.83980
19167.2060	0.83647
19169.3120	0.82822
19171.4310	0.81512
19173.5690	0.79792
19175.7180	0.77850
19177.8710	0.75873
19180.0430	0.74065
19182.2260	0.72605
19184.4130	0.71721
19186.6140	0.71426
19188.8300	0.71590
19191.0540	0.71934
19193.3160	0.72250
19195.5570	0.72454
19197.8280	0.72615
19200.1160	0.72790
19202.4110	0.73168
19204.6950	0.73693
19207.0110	0.74312
19209.3410	0.75059
19211.6970	0.75850
19214.0420	0.76581
19216.4140	0.77250
19218.7690	0.77780
19221.1630	0.78159
19223.5640	0.78331
19225.9820	0.78393
19228.4000	0.78428
19230.8440	0.78396
19233.2860	0.78208
19235.7510	0.77834
19238.2300	0.77297
19240.7190	0.76673
19243.2090	0.75915
19245.7150	0.74948
19248.2220	0.73890
19250.7720	0.72903
19253.3100	0.72099
19255.9050	0.71402
19258.4550	0.70785
19261.0280	0.70294
19263.6320	0.69911
19266.2340	0.69777
19268.8620	0.69942
19271.4990	0.70385
19274.1370	0.70934
19276.7940	0.71508
19279.4590	0.72055
19282.1440	0.72556
19284.8420	0.73043
19287.5410	0.73437
19290.2670	0.73760
19293.0010	0.73983
19295.7310	0.74109
19298.4850	0.74161
19301.2510	0.74070
19304.0250	0.73882
19306.8290	0.73583
19309.6200	0.73227
19312.4410	0.72921
19315.2660	0.72652
19318.1140	0.72432
19320.9580	0.72178
19323.8240	0.71787
19326.7040	0.71303
19329.5850	0.70738
19332.4810	0.70255
19335.3890	0.69877
19338.3340	0.69637
19341.2740	0.69422
19344.2070	0.69259
19347.1710	0.69073
19350.1430	0.68884
19353.1310	0.68725
19356.1350	0.68681
19359.1460	0.68729
19362.1670	0.68897
19365.2050	0.69048
19368.2530	0.69102
19371.3070	0.69112
19374.3870	0.69035
19377.4680	0.68975
19380.5590	0.68882
19383.6650	0.68798
19386.7920	0.68808
19389.9090	0.68852
19393.0680	0.68928
19396.2170	0.69036
19399.3710	0.69086
19402.5630	0.69046
19405.7570	0.68926
19408.9790	0.68737
19412.1760	0.68539
19415.4140	0.68313
19418.6670	0.68038
19421.9070	0.67707
19425.1770	0.67335
19428.4560	0.67015
19431.7430	0.66778
19435.0380	0.66581
19438.3640	0.66441
19441.6960	0.66337
19445.0200	0.66237
19448.3730	0.66167
19451.7520	0.66056
19455.1230	0.65943
19458.5200	0.65831
19461.9170	0.65712
19465.3150	0.65592
19468.7440	0.65471
19472.1740	0.65343
19475.6350	0.65269
19479.0950	0.65212
19482.5730	0.65165
19486.0520	0.65109
19489.5530	0.65001
19493.0580	0.64891
19496.5870	0.64792
19500.1110	0.64743
19503.6680	0.64718
19507.2220	0.64683
19510.7910	0.64690
19514.3870	0.64699
19517.9660	0.64685
19521.5850	0.64676
19525.1970	0.64578
19528.8420	0.64367
19532.4730	0.64136
19536.1210	0.63807
19539.7960	0.63483
19543.4890	0.63173
19547.1790	0.62883
19550.8790	0.62663
19554.5980	0.62488
19558.3190	0.62311
19562.0640	0.62170
19565.8280	0.61998
19569.5890	0.61852
19573.3680	0.61708
19577.1600	0.61587
19580.9590	0.61539
19584.7820	0.61494
19588.6020	0.61466
19592.4580	0.61390
19596.3070	0.61324
19600.1600	0.61243
19604.0350	0.61162
19607.9280	0.61085
19611.8300	0.60974
19615.7360	0.60891
19619.6550	0.60814
19623.6010	0.60747
19627.5580	0.60665
19631.5060	0.60556
19635.4850	0.60436
19639.4750	0.60277
19643.4820	0.60091
19647.4820	0.59896
19651.5060	0.59700
19655.5310	0.59473
19659.5960	0.59264
19663.6360	0.59049
19667.7230	0.58859
19671.7860	0.58633
19675.8730	0.58471
19679.9960	0.58276
19684.1130	0.58118
19688.2510	0.57958
19692.4050	0.57809
19696.5420	0.57664
19700.7230	0.57557
19704.8960	0.57460
19709.0760	0.57409
19713.2960	0.57338
19717.5100	0.57273
19721.7520	0.57205
19725.9850	0.57111
19730.2330	0.56995
19734.5040	0.56877
19738.7730	0.56753
19743.0670	0.56632
19747.3770	0.56516
19751.6920	0.56384
19756.0200	0.56232
19760.3580	0.56073
19764.7090	0.55911
19769.0700	0.55728
19773.4560	0.55533
19777.8410	0.55357
19782.2340	0.55159
19786.6450	0.54996
19791.0680	0.54790
19795.5110	0.54618
19799.9550	0.54453
19804.4020	0.54280
19808.9020	0.54116
19813.3850	0.53985
19817.8660	0.53847
19822.3860	0.53724
19826.9090	0.53609
19831.4410	0.53501
19835.9820	0.53393
19840.5510	0.53259
19845.1160	0.53131
19849.7040	0.52988
19854.2950	0.52852
19858.8990	0.52709
19863.5210	0.52582
19868.1560	0.52442
19872.8030	0.52317
19877.4500	0.52167
19882.1350	0.52039
19886.8040	0.51909
19891.5080	0.51752
19896.2120	0.51601
19900.9280	0.51421
19905.6490	0.51261
19910.3910	0.51090
19915.1470	0.50917
19919.9160	0.50750
19924.6960	0.50576
19929.4910	0.50410
19934.2960	0.50242
19939.0980	0.50081
19943.9240	0.49921
19948.7600	0.49774
19953.6100	0.49619
19958.4750	0.49504
19963.3520	0.49350
19968.2480	0.49211
19973.1370	0.49071
19978.0580	0.48922
19982.9780	0.48779
19987.9180	0.48648
19992.8630	0.48507
19997.8300	0.48361
20000.0110	0.48291