# DIAMOND LIGHT SOURCE
# Instrument: I20-XAS Date: Fri, 12 Jul 2013 11:59:02 BST
# Ring energy: 3.00092 GeV
# Initial ring current: 298.46277 mA
# Filling mode: Standby
# Wiggler gap selected: 20.00000 mm
#  
# Primary slits:  vertical gap= 0.11999 mm; horizontal gap= 0.80009 mm; vertical offset= 0.02500 mm; horizontal offset= 0.00001 mm
# Secondary slits:  vertical gap= 2.99900 mm; horizontal gap= 23.49900 mm; vertical offset= -0.00050 mm; horizontal offset= 0.25950 mm
# Experimental slits:  vertical gap= 1.20000 mm; horizontal gap= 4.99996 mm; vertical offset= 0.85000 mm; horizontal offset= 0.00008 mm
#  
# Optic Hutch Mirrors Coating: Rhodium
# Monochromator crystal cut: Si(111)
# Incident angle for Harmonic Rejection Mirrors: -7.92 mrad
# Harmonic rejection mirrors coating: Rhodium
# I0 Stanford sensitivity: 2 uA/V Offsets: 20 nA
# It Stanford sensitivity: 2 uA/V Offsets: 10 nA
# Iref Stanford sensitivity: 200 nA/V Offsets: 1 nA
# Atn5 (Xia) filters: 0.5mm C Out 1.0mm C Out 2.0mm C Out 4.0mm C In
# Sample stage: x: 0.00 mm y: 20.00 mm z: 0.00 mm rot: -0.00 deg roll: 0.00 deg pitch: 0.00 deg
#
# Ascii output file name: 'Ta_foil_33826_1.dat'
# Nexus output file: '/dls/i20/data/2013/sp6922-1/Ta_L3edge/nexus/33826_1.nxs'
# The XML files, ScanParameters, SampleParameters, DetectorParameters, OutputParameters
# are stored in the nexus file.
#
# Sample name: Ta_foil
# Sample description: Ta foil
##
#
#
# Dark current intensity was collected over 3.00s. Average counts per second: I0 1075.33   It 423.00   Iref 242.33
# Dark current has been automatically removed from counts in main scan (I0,It,Iref)
#
# Energy	lnI0It          	
9699.9990	-0.21366
9705.0000	-0.21637
9710.0030	-0.21958
9715.0030	-0.22245
9720.0000	-0.22551
9725.0010	-0.22832
9730.0010	-0.23112
9735.0020	-0.23402
9740.0020	-0.23696
9745.0010	-0.23992
9750.0010	-0.24243
9754.9960	-0.24509
9759.9950	-0.24778
9765.0020	-0.25064
9769.9990	-0.25321
9775.0030	-0.25566
9780.0000	-0.25839
9785.0020	-0.26121
9789.9990	-0.26388
9794.9980	-0.26584
9800.0000	-0.26827
9804.9990	-0.27048
9809.7810	-0.27264
9814.1270	-0.27422
9818.0510	-0.27565
9821.5730	-0.27664
9824.6990	-0.27736
9827.4460	-0.27784
9829.8230	-0.27802
9831.8440	-0.27832
9833.5250	-0.27846
9834.8720	-0.27842
9835.9070	-0.27828
9836.6390	-0.27831
9837.0800	-0.27832
9837.3790	-0.27823
9837.6800	-0.27812
9837.9770	-0.27821
9838.2820	-0.27819
9838.5830	-0.27806
9838.8790	-0.27797
9839.1810	-0.27785
9839.4790	-0.27776
9839.7800	-0.27765
9840.0770	-0.27752
9840.3760	-0.27764
9840.6800	-0.27761
9840.9800	-0.27741
9841.2780	-0.27728
9841.5810	-0.27710
9841.8810	-0.27716
9842.1810	-0.27709
9842.4800	-0.27689
9842.7810	-0.27670
9843.0800	-0.27644
9843.3780	-0.27609
9843.6810	-0.27598
9843.9800	-0.27594
9844.2810	-0.27591
9844.5850	-0.27544
9844.8820	-0.27549
9845.1810	-0.27541
9845.4820	-0.27516
9845.7830	-0.27493
9846.0770	-0.27479
9846.3790	-0.27461
9846.6790	-0.27420
9846.9780	-0.27413
9847.2790	-0.27372
9847.5820	-0.27361
9847.8790	-0.27344
9848.1800	-0.27322
9848.4800	-0.27245
9848.7810	-0.27223
9849.0830	-0.27209
9849.3780	-0.27158
9849.6780	-0.27134
9849.9780	-0.27088
9850.2800	-0.27066
9850.5810	-0.27034
9850.8780	-0.26984
9851.1800	-0.26951
9851.4800	-0.26893
9851.7800	-0.26847
9852.0810	-0.26823
9852.3810	-0.26767
9852.6810	-0.26714
9852.9810	-0.26651
9853.2820	-0.26607
9853.5790	-0.26529
9853.8800	-0.26493
9854.1810	-0.26439
9854.4820	-0.26371
9854.7790	-0.26312
9855.0820	-0.26254
9855.3770	-0.26172
9855.6810	-0.26087
9855.9780	-0.26004
9856.2810	-0.25921
9856.5760	-0.25854
9856.8800	-0.25765
9857.1810	-0.25686
9857.4840	-0.25588
9857.7830	-0.25484
9858.0810	-0.25380
9858.3830	-0.25288
9858.6820	-0.25165
9858.9820	-0.25060
9859.2770	-0.24925
9859.5780	-0.24797
9859.8830	-0.24682
9860.1800	-0.24537
9860.4770	-0.24392
9860.7790	-0.24260
9861.0820	-0.24104
9861.3790	-0.23949
9861.6810	-0.23792
9861.9780	-0.23602
9862.2790	-0.23413
9862.5770	-0.23225
9862.8820	-0.23031
9863.1790	-0.22836
9863.4810	-0.22624
9863.7770	-0.22386
9864.0820	-0.22131
9864.3800	-0.21875
9864.6780	-0.21607
9864.9800	-0.21339
9865.2810	-0.21039
9865.5800	-0.20740
9865.8790	-0.20400
9866.1740	-0.20057
9866.4820	-0.19702
9866.7810	-0.19316
9867.0830	-0.18905
9867.3770	-0.18471
9867.6820	-0.17996
9867.9810	-0.17515
9868.2810	-0.17009
9868.5810	-0.16457
9868.8770	-0.15870
9869.1780	-0.15243
9869.4820	-0.14602
9869.7790	-0.13872
9870.0780	-0.13122
9870.3820	-0.12298
9870.6800	-0.11430
9870.9750	-0.10489
9871.2790	-0.09462
9871.5780	-0.08310
9871.8810	-0.07156
9872.1800	-0.05832
9872.4790	-0.04421
9872.7810	-0.02894
9873.0800	-0.01225
9873.3800	6.29000e-3
9873.6810	0.02658
9873.9800	0.04898
9874.2770	0.07401
9874.5780	0.10155
9874.8790	0.13244
9875.1800	0.16690
9875.4830	0.20572
9875.7790	0.24966
9876.0830	0.29897
9876.3770	0.35491
9876.6810	0.41856
9876.9800	0.49144
9877.2790	0.57400
9877.5810	0.66848
9877.8810	0.77476
9878.1780	0.89461
9878.4810	1.02731
9878.7780	1.17221
9879.0820	1.32956
9879.3810	1.49726
9879.6760	1.67493
9879.9790	1.86236
9880.2790	2.05719
9880.5780	2.25892
9880.8790	2.46235
9881.1820	2.66453
9881.4790	2.86029
9881.7840	3.04159
9882.0760	3.19936
9882.3790	3.32539
9882.6790	3.41458
9882.9770	3.46270
9883.2800	3.46958
9883.5810	3.43811
9883.8800	3.37303
9884.1790	3.28133
9884.4790	3.17099
9884.7770	3.04887
9885.0790	2.92150
9885.3820	2.79454
9885.6800	2.67225
9885.9800	2.55582
9886.2800	2.44606
9886.5780	2.34454
9886.8780	2.25157
9887.1850	2.16712
9887.4800	2.09040
9887.7810	2.02156
9888.0790	1.96060
9888.3790	1.90651
9888.6770	1.85845
9888.9810	1.81619
9889.2790	1.77910
9889.5820	1.74643
9889.8830	1.71759
9890.1810	1.69144
9890.4790	1.66856
9890.7810	1.64671
9891.0800	1.62681
9891.3830	1.60792
9891.6780	1.59015
9891.9830	1.57296
9892.2810	1.55560
9892.5780	1.53874
9892.8810	1.52167
9893.1800	1.50470
9893.4780	1.48659
9893.7820	1.46838
9894.0800	1.44981
9894.3800	1.43143
9894.6820	1.41323
9894.9820	1.39520
9895.2800	1.37750
9895.5780	1.36000
9895.8790	1.34301
9896.1750	1.32679
9896.4800	1.31141
9896.7790	1.29639
9897.0800	1.28239
9897.3810	1.26924
9897.6790	1.25724
9897.9810	1.24592
9898.2820	1.23577
9898.5790	1.22613
9898.8800	1.21714
9899.1790	1.20897
9899.4790	1.20144
9899.7810	1.19396
9900.0780	1.18615
9900.3800	1.17840
9900.6810	1.17053
9900.9800	1.16287
9901.2840	1.15512
9901.5800	1.14730
9901.8820	1.14020
9902.1800	1.13288
9902.4800	1.12635
9902.7800	1.11988
9903.0800	1.11414
9903.3770	1.10939
9903.6840	1.10502
9903.9800	1.10119
9904.2850	1.09799
9904.5820	1.09540
9904.8820	1.09334
9905.1820	1.09132
9905.4830	1.08994
9905.7820	1.08874
9906.0810	1.08764
9906.3820	1.08665
9906.6820	1.08548
9906.9790	1.08425
9907.2800	1.08278
9907.5800	1.08128
9907.8770	1.07924
9908.1770	1.07726
9908.4800	1.07448
9908.7810	1.07160
9909.0810	1.06953
9909.3810	1.06657
9909.6800	1.06372
9909.9800	1.06098
9910.2780	1.05855
9910.5770	1.05642
9910.8820	1.05455
9911.1800	1.05307
9911.4810	1.05193
9911.7830	1.05110
9912.0800	1.05050
9912.3780	1.05020
9912.6800	1.05018
9912.9810	1.05043
9913.2770	1.05077
9913.5800	1.05114
9913.8800	1.05172
9914.1800	1.05215
9914.4780	1.05243
9914.7830	1.05264
9915.0770	1.05277
9915.3820	1.05276
9915.6790	1.05213
9915.9810	1.05152
9916.2800	1.05039
9916.5780	1.04953
9916.8780	1.04783
9917.1780	1.04594
9917.4770	1.04350
9917.7770	1.04099
9918.0790	1.03807
9918.3760	1.03500
9918.6810	1.03158
9918.9780	1.02786
9919.2790	1.02447
9919.5790	1.02050
9919.8780	1.01674
9920.1820	1.01273
9920.4850	1.00882
9920.7810	1.00527
9921.0780	1.00190
9921.3800	0.99847
9921.6810	0.99550
9921.9820	0.99299
9922.2800	0.99066
9922.5800	0.98883
9922.8790	0.98750
9923.1800	0.98650
9923.4810	0.98597
9923.7790	0.98609
9924.0820	0.98641
9924.3780	0.98723
9924.6800	0.98841
9924.9200	0.98955
9925.2520	0.99146
9925.6500	0.99437
9926.1120	0.99818
9926.6410	1.00313
9927.2420	1.00893
9927.9200	1.01542
9928.6690	1.02278
9929.4960	1.03052
9930.4050	1.03810
9931.3910	1.04523
9932.4630	1.05051
9933.5880	1.05356
9934.7270	1.05344
9935.8820	1.05081
9937.0450	1.04660
9938.2190	1.04208
9939.4010	1.03780
9940.6010	1.03410
9941.8180	1.03072
9943.0380	1.02759
9944.2760	1.02510
9945.5220	1.02391
9946.7840	1.02450
9948.0540	1.02646
9949.3420	1.02998
9950.6400	1.03494
9951.9470	1.04048
9953.2680	1.04528
9954.6000	1.04855
9955.9450	1.04948
9957.3050	1.04697
9958.6770	1.04094
9960.0580	1.03174
9961.4550	1.02122
9962.8570	1.01090
9964.2800	1.00245
9965.7080	0.99622
9967.1530	0.99290
9968.6090	0.99197
9970.0750	0.99338
9971.5550	0.99607
9973.0470	0.99800
9974.5520	0.99922
9976.0680	0.99952
9977.5940	0.99901
9979.1380	0.99879
9980.6890	0.99881
9982.2590	1.00002
9983.8350	1.00236
9985.4220	1.00541
9987.0290	1.00861
9988.6390	1.01227
9990.2640	1.01552
9991.9010	1.01882
9993.5540	1.02196
9995.2170	1.02563
9996.8900	1.02932
9998.5810	1.03226
10000.2780	1.03451
10001.9900	1.03524
10003.7140	1.03431
10005.4510	1.03229
10007.1980	1.02916
10008.9540	1.02463
10010.7310	1.01763
10012.5180	1.00777
10014.3120	0.99619
10016.1220	0.98531
10017.9400	0.97699
10019.7730	0.97126
10021.6210	0.96696
10023.4780	0.96431
10025.3490	0.96268
10027.2270	0.96201
10029.1240	0.96239
10031.0270	0.96258
10032.9520	0.96223
10034.8830	0.96152
10036.8240	0.96141
10038.7770	0.96157
10040.7470	0.96183
10042.7300	0.96226
10044.7200	0.96270
10046.7220	0.96352
10048.7400	0.96632
10050.7690	0.97184
10052.8100	0.98026
10054.8600	0.99073
10056.9250	1.00189
10059.0070	1.01206
10061.0930	1.01959
10063.1980	1.02246
10065.3110	1.01938
10067.4330	1.00953
10069.5740	0.99264
10071.7260	0.97135
10073.8820	0.95083
10076.0650	0.93455
10078.2440	0.92479
10080.4510	0.92035
10082.6560	0.91969
10084.8810	0.92079
10087.1200	0.92224
10089.3630	0.92266
10091.6290	0.92216
10093.8990	0.92188
10096.1830	0.92230
10098.4790	0.92406
10100.7910	0.92734
10103.1060	0.93124
10105.4410	0.93391
10107.7890	0.93476
10110.1450	0.93451
10112.5170	0.93365
10114.8960	0.93366
10117.2940	0.93524
10119.6970	0.93719
10122.1180	0.93968
10124.5480	0.94177
10126.9920	0.94335
10129.4470	0.94391
10131.9130	0.94245
10134.3930	0.93911
10136.8880	0.93382
10139.3880	0.92656
10141.9020	0.91856
10144.4330	0.91083
10146.9760	0.90379
10149.5280	0.89735
10152.0910	0.89182
10154.6710	0.88645
10157.2580	0.88240
10159.8620	0.88035
10162.4720	0.88016
10165.0980	0.88049
10167.7380	0.88096
10170.3880	0.88206
10173.0510	0.88363
10175.7230	0.88525
10178.4120	0.88714
10181.1100	0.88892
10183.8230	0.88979
10186.5480	0.89059
10189.2810	0.89060
10192.0290	0.89025
10194.7880	0.88831
10197.5640	0.88563
10200.3440	0.88161
10203.1400	0.87725
10205.9500	0.87289
10208.7730	0.86874
10211.6060	0.86480
10214.4490	0.86111
10217.3080	0.85750
10220.1750	0.85284
10223.0650	0.84795
10225.9530	0.84339
10228.8620	0.83959
10231.7770	0.83725
10234.7140	0.83627
10237.6540	0.83558
10240.6070	0.83457
10243.5740	0.83302
10246.5550	0.83151
10249.5470	0.83045
10252.5490	0.82961
10255.5660	0.82911
10258.5950	0.82823
10261.6350	0.82699
10264.6880	0.82472
10267.7520	0.82289
10270.8260	0.82086
10273.9160	0.81941
10277.0170	0.81809
10280.1330	0.81681
10283.2610	0.81524
10286.3990	0.81288
10289.5480	0.80989
10292.7100	0.80629
10295.8860	0.80305
10299.0730	0.79875
10302.2730	0.79469
10305.4810	0.79061
10308.7050	0.78664
10311.9390	0.78310
10315.1890	0.77969
10318.4440	0.77630
10321.7180	0.77329
10325.0030	0.77065
10328.3000	0.76802
10331.6120	0.76550
10334.9330	0.76342
10338.2640	0.76249
10341.6100	0.76165
10344.9690	0.76058
10348.3350	0.75897
10351.7170	0.75700
10355.1100	0.75537
10358.5210	0.75361
10361.9350	0.75124
10365.3680	0.74948
10368.8100	0.74786
10372.2620	0.74587
10375.7330	0.74356
10379.2130	0.74090
10382.7040	0.73775
10386.2080	0.73447
10389.7210	0.73129
10393.2510	0.72845
10396.7890	0.72643
10400.3440	0.72429
10403.9090	0.72173
10407.4850	0.71877
10411.0750	0.71413
10414.6710	0.70891
10418.2880	0.70339
10421.9140	0.69804
10425.5530	0.69361
10429.2020	0.68981
10432.8600	0.68663
10436.5350	0.68366
10440.2240	0.68163
10443.9260	0.68004
10447.6330	0.67882
10451.3580	0.67788
10455.0950	0.67738
10458.8420	0.67699
10462.6020	0.67669
10466.3720	0.67593
10470.1540	0.67458
10473.9550	0.67212
10477.7620	0.66878
10481.5810	0.66522
10485.4160	0.66134
10489.2580	0.65765
10493.1140	0.65384
10496.9850	0.65064
10500.8690	0.64796
10504.7650	0.64487
10508.6660	0.64158
10512.5860	0.63802
10516.5180	0.63443
10520.4580	0.63051
10524.4170	0.62615
10528.3870	0.62114
10532.3590	0.61681
10536.3520	0.61281
10540.3560	0.60938
10544.3750	0.60617
10548.3980	0.60297
10552.4390	0.60005
10556.4900	0.59791
10560.5560	0.59587
10564.6290	0.59381
10568.7240	0.59166
10572.8240	0.58976
10576.9380	0.58861
10581.0630	0.58706
10585.2010	0.58574
10589.3530	0.58405
10593.5100	0.58206
10597.6840	0.57999
10601.8750	0.57683
10606.0750	0.57275
10610.2860	0.56859
10614.5060	0.56435
10618.7390	0.56021
10622.9910	0.55633
10627.2470	0.55259
10631.5200	0.54886
10635.8040	0.54479
10640.0980	0.54025
10644.4110	0.53593
10648.7300	0.53159
10653.0600	0.52748
10657.4050	0.52411
10661.7640	0.52076
10666.1360	0.51747
10670.5170	0.51433
10674.9090	0.51193
10679.3160	0.50953
10683.7300	0.50753
10688.1680	0.50543
10692.6030	0.50349
10697.0570	0.50149
10701.5270	0.49942
10706.0050	0.49657
10710.4970	0.49342
10715.0010	0.49036
10719.5190	0.48694
10724.0500	0.48337
10728.5870	0.47975
10733.1380	0.47604
10737.7020	0.47265
10742.2760	0.46924
10746.8630	0.46603
10751.4690	0.46267
10756.0820	0.45935
10760.7020	0.45562
10765.3440	0.45170
10769.9950	0.44765
10774.6530	0.44313
10779.3290	0.43905
10784.0170	0.43500
10788.7140	0.43106
10793.4270	0.42750
10798.1470	0.42414
10802.8810	0.42068
10807.6320	0.41777
10812.3900	0.41480
10817.1630	0.41191
10821.9460	0.40921
10826.7430	0.40688
10831.5520	0.40446
10836.3740	0.40181
10841.2040	0.39894
10846.0500	0.39585
10850.9030	0.39254
10855.7760	0.38889
10860.6580	0.38545
10865.5490	0.38125
10870.4580	0.37736
10875.3730	0.37354
10880.3020	0.36958
10885.2410	0.36604
10890.1980	0.36251
10895.1660	0.35875
10900.1430	0.35519
10905.1370	0.35197
10910.1380	0.34816
10915.1570	0.34440
10920.1840	0.34063
10925.2260	0.33660
10930.2730	0.33305
10935.3420	0.32897
10940.4180	0.32524
10945.5060	0.32191
10950.6070	0.31866
10955.7170	0.31564
10960.8470	0.31234
10965.9820	0.30939
10971.1320	0.30646
10976.2950	0.30362
10981.4650	0.30033
10986.6530	0.29671
10991.8520	0.29329
10997.0630	0.28976
11002.2840	0.28632
11007.5180	0.28278
11012.7720	0.27921
11018.0290	0.27518
11023.2970	0.27135
11028.5830	0.26754
11033.8790	0.26381
11039.1890	0.25985
11044.5080	0.25585
11049.8420	0.25197
11055.1870	0.24820
11060.5390	0.24434
11065.9130	0.24030
11071.2900	0.23641
11076.6860	0.23281
11082.0920	0.22903
11087.5040	0.22567
11092.9410	0.22244
11098.3820	0.21969
11100.0020	0.21892